Typical Measured Spectrum of Semrock FF01-700/13 Optical Filter	
For wavelengths between 320 and 1120 nm, values near or below 3e-7 (Optical Density 6.5) are measurement noise limited.
For wavelengths < 320 nm and > 1120 nm, values near or below 3e-6 (Optical Density 5.5) are measurement noise limited. 
Data format:  Wavelength (nm) <tab> Transmission (0 to 1)
300.0	2.1572e-07
300.2	2.1343e-07
300.4	2.1117e-07
300.6	2.0894e-07
300.8	2.0672e-07
301.0	2.0453e-07
301.2	2.0237e-07
301.4	2.0022e-07
301.6	1.981e-07
301.8	1.96e-07
302.0	2.5593e-07
302.2	3.3464e-07
302.4	4.3757e-07
302.6	5.7214e-07
302.8	7.4811e-07
303.0	9.782e-07
303.2	1.2791e-06
303.4	1.6724e-06
303.6	2.1868e-06
303.8	2.8594e-06
304.0	2.4049e-06
304.2	1.7924e-06
304.4	1.3358e-06
304.6	9.956e-07
304.8	7.4202e-07
305.0	5.5303e-07
305.2	4.1217e-07
305.4	3.0719e-07
305.6	2.2895e-07
305.8	1.7064e-07
306.0	1.5e-07
306.2	1.4898e-07
306.4	1.4797e-07
306.6	1.4696e-07
306.8	1.4596e-07
307.0	1.4497e-07
307.2	1.4398e-07
307.4	1.43e-07
307.6	1.4202e-07
307.8	1.4106e-07
308.0	1.4964e-07
308.2	1.7758e-07
308.4	2.1073e-07
308.6	2.5008e-07
308.8	2.9678e-07
309.0	3.522e-07
309.2	4.1796e-07
309.4	4.9601e-07
309.6	5.8862e-07
309.8	6.9853e-07
310.0	8.0542e-07
310.2	6.6666e-07
310.4	5.5182e-07
310.6	4.5675e-07
310.8	3.7807e-07
311.0	3.1293e-07
311.2	2.5902e-07
311.4	2.144e-07
311.6	1.7746e-07
311.8	1.4689e-07
312.0	1.6059e-07
312.2	1.7682e-07
312.4	1.9469e-07
312.6	2.1437e-07
312.8	2.3603e-07
313.0	2.5988e-07
313.2	2.8615e-07
313.4	3.1507e-07
313.6	3.4691e-07
313.8	3.8197e-07
314.0	4.2365e-07
314.2	4.7092e-07
314.4	5.2347e-07
314.6	5.8188e-07
314.8	6.468e-07
315.0	7.1898e-07
315.2	7.992e-07
315.4	8.8838e-07
315.6	9.8751e-07
315.8	1.0977e-06
316.0	1.0151e-06
316.2	8.1474e-07
316.4	6.5392e-07
316.6	5.2484e-07
316.8	4.2124e-07
317.0	3.3809e-07
317.2	2.7136e-07
317.4	2.1779e-07
317.6	1.748e-07
317.8	1.403e-07
318.0	1.2477e-07
318.2	1.3263e-07
318.4	1.4099e-07
318.6	1.4988e-07
318.8	1.5932e-07
319.0	1.6937e-07
319.2	1.8004e-07
319.4	1.9139e-07
319.6	2.0345e-07
319.8	2.1627e-07
320.0	2.2746e-07
320.2	2.1154e-07
320.4	1.9673e-07
320.6	1.8296e-07
320.8	1.7015e-07
321.0	1.5824e-07
321.2	1.4717e-07
321.4	1.3687e-07
321.6	1.2729e-07
321.8	1.1838e-07
322.0	1.2608e-07
322.2	1.3466e-07
322.4	1.4382e-07
322.6	1.536e-07
322.8	1.6405e-07
323.0	1.7522e-07
323.2	1.8714e-07
323.4	1.9987e-07
323.6	2.1346e-07
323.8	2.2799e-07
324.0	2.5088e-07
324.2	2.7842e-07
324.4	3.0897e-07
324.6	3.4288e-07
324.8	3.8051e-07
325.0	4.2227e-07
325.2	4.6861e-07
325.4	5.2004e-07
325.6	5.7711e-07
325.8	6.4045e-07
326.0	6.4404e-07
326.2	6.0304e-07
326.4	5.6466e-07
326.6	5.2872e-07
326.8	4.9506e-07
327.0	4.6355e-07
327.2	4.3405e-07
327.4	4.0642e-07
327.6	3.8055e-07
327.8	3.5633e-07
328.0	3.463e-07
328.2	3.5719e-07
328.4	3.6841e-07
328.6	3.7999e-07
328.8	3.9193e-07
329.0	4.0425e-07
329.2	4.1696e-07
329.4	4.3006e-07
329.6	4.4358e-07
329.8	4.5752e-07
330.0	4.6092e-07
330.2	3.7114e-07
330.4	2.9885e-07
330.6	2.4063e-07
330.8	1.9376e-07
331.0	1.5602e-07
331.2	1.2563e-07
331.4	1.0116e-07
331.6	8.1451e-08
331.8	6.5585e-08
332.0	7.7197e-08
332.2	9.2699e-08
332.4	1.1131e-07
332.6	1.3367e-07
332.8	1.6051e-07
333.0	1.9274e-07
333.2	2.3144e-07
333.4	2.7792e-07
333.6	3.3373e-07
333.8	4.0074e-07
334.0	3.6028e-07
334.2	2.9487e-07
334.4	2.4133e-07
334.6	1.9751e-07
334.8	1.6165e-07
335.0	1.323e-07
335.2	1.0828e-07
335.4	8.862e-08
335.6	7.253e-08
335.8	5.9361e-08
336.0	5.4081e-08
336.2	5.3509e-08
336.4	5.2944e-08
336.6	5.2384e-08
336.8	5.1831e-08
337.0	5.1283e-08
337.2	5.0741e-08
337.4	5.0205e-08
337.6	4.9674e-08
337.8	4.9149e-08
338.0	5.2224e-08
338.2	6.2493e-08
338.4	7.4781e-08
338.6	8.9485e-08
338.8	1.0708e-07
339.0	1.2814e-07
339.2	1.5333e-07
339.4	1.8348e-07
339.6	2.1956e-07
339.8	2.6274e-07
340.0	3.0828e-07
340.2	2.9995e-07
340.4	2.9185e-07
340.6	2.8397e-07
340.8	2.7629e-07
341.0	2.6883e-07
341.2	2.6157e-07
341.4	2.545e-07
341.6	2.4763e-07
341.8	2.4094e-07
342.0	2.0291e-07
342.2	1.6904e-07
342.4	1.4082e-07
342.6	1.1731e-07
342.8	9.773e-08
343.0	8.1416e-08
343.2	6.7825e-08
343.4	5.6503e-08
343.6	4.7071e-08
343.8	3.9213e-08
344.0	3.7242e-08
344.2	3.7036e-08
344.4	3.6832e-08
344.6	3.6629e-08
344.8	3.6427e-08
345.0	3.6226e-08
345.2	3.6026e-08
345.4	3.5827e-08
345.6	3.5629e-08
345.8	3.5433e-08
346.0	4.1271e-08
346.2	5.4567e-08
346.4	7.2146e-08
346.6	9.5388e-08
346.8	1.2612e-07
347.0	1.6675e-07
347.2	2.2046e-07
347.4	2.9149e-07
347.6	3.8539e-07
347.8	5.0955e-07
348.0	5.5704e-07
348.2	4.4357e-07
348.4	3.5321e-07
348.6	2.8126e-07
348.8	2.2396e-07
349.0	1.7834e-07
349.2	1.4201e-07
349.4	1.1308e-07
349.6	9.0046e-08
349.8	7.1703e-08
350.0	5.8556e-08
350.2	6.0823e-08
350.4	6.3178e-08
350.6	6.5623e-08
350.8	6.8163e-08
351.0	7.0802e-08
351.2	7.3543e-08
351.4	7.639e-08
351.6	7.9347e-08
351.8	8.2418e-08
352.0	7.7325e-08
352.2	7.1993e-08
352.4	6.7029e-08
352.6	6.2407e-08
352.8	5.8104e-08
353.0	5.4097e-08
353.2	5.0367e-08
353.4	4.6894e-08
353.6	4.3661e-08
353.8	4.065e-08
354.0	4.1925e-08
354.2	4.4781e-08
354.4	4.7831e-08
354.6	5.1089e-08
354.8	5.4569e-08
355.0	5.8286e-08
355.2	6.2257e-08
355.4	6.6497e-08
355.6	7.1027e-08
355.8	7.5865e-08
356.0	7.5042e-08
356.2	6.9965e-08
356.4	6.5231e-08
356.6	6.0818e-08
356.8	5.6703e-08
357.0	5.2866e-08
357.2	4.929e-08
357.4	4.5955e-08
357.6	4.2846e-08
357.8	3.9947e-08
358.0	4.0122e-08
358.2	4.5272e-08
358.4	5.1084e-08
358.6	5.7642e-08
358.8	6.5042e-08
359.0	7.3391e-08
359.2	8.2813e-08
359.4	9.3444e-08
359.6	1.0544e-07
359.8	1.1897e-07
360.0	1.3066e-07
360.2	1.1387e-07
360.4	9.924e-08
360.6	8.649e-08
360.8	7.5378e-08
361.0	6.5693e-08
361.2	5.7253e-08
361.4	4.9897e-08
361.6	4.3487e-08
361.8	3.7899e-08
362.0	3.7516e-08
362.2	3.744e-08
362.4	3.7364e-08
362.6	3.7289e-08
362.8	3.7213e-08
363.0	3.7138e-08
363.2	3.7062e-08
363.4	3.6987e-08
363.6	3.6912e-08
363.8	3.6837e-08
364.0	3.6757e-08
364.2	3.6675e-08
364.4	3.6593e-08
364.6	3.6511e-08
364.8	3.643e-08
365.0	3.6348e-08
365.2	3.6267e-08
365.4	3.6186e-08
365.6	3.6105e-08
365.8	3.6025e-08
366.0	3.5934e-08
366.2	3.5838e-08
366.4	3.5741e-08
366.6	3.5645e-08
366.8	3.5549e-08
367.0	3.5453e-08
367.2	3.5357e-08
367.4	3.5262e-08
367.6	3.5167e-08
367.8	3.5072e-08
368.0	3.869e-08
368.2	4.9205e-08
368.4	6.2578e-08
368.6	7.9584e-08
368.8	1.0121e-07
369.0	1.2872e-07
369.2	1.637e-07
369.4	2.0819e-07
369.6	2.6477e-07
369.8	3.3673e-07
370.0	4.1035e-07
370.2	3.7097e-07
370.4	3.3536e-07
370.6	3.0317e-07
370.8	2.7407e-07
371.0	2.4777e-07
371.2	2.2399e-07
371.4	2.0249e-07
371.6	1.8305e-07
371.8	1.6548e-07
372.0	1.8219e-07
372.2	2.0336e-07
372.4	2.2699e-07
372.6	2.5336e-07
372.8	2.828e-07
373.0	3.1566e-07
373.2	3.5233e-07
373.4	3.9327e-07
373.6	4.3896e-07
373.8	4.8996e-07
374.0	4.0677e-07
374.2	3.0835e-07
374.4	2.3375e-07
374.6	1.7719e-07
374.8	1.3432e-07
375.0	1.0182e-07
375.2	7.7188e-08
375.4	5.8512e-08
375.6	4.4355e-08
375.8	3.3624e-08
376.0	3.0022e-08
376.2	2.9896e-08
376.4	2.9771e-08
376.6	2.9647e-08
376.8	2.9523e-08
377.0	2.94e-08
377.2	2.9277e-08
377.4	2.9155e-08
377.6	2.9033e-08
377.8	2.8912e-08
378.0	2.9281e-08
378.2	3.0327e-08
378.4	3.1411e-08
378.6	3.2533e-08
378.8	3.3695e-08
379.0	3.4898e-08
379.2	3.6145e-08
379.4	3.7436e-08
379.6	3.8773e-08
379.8	4.0158e-08
380.0	4.2545e-08
380.2	5.2106e-08
380.4	6.3816e-08
380.6	7.8158e-08
380.8	9.5723e-08
381.0	1.1724e-07
381.2	1.4358e-07
381.4	1.7585e-07
381.6	2.1537e-07
381.8	2.6377e-07
382.0	2.6089e-07
382.2	2.536e-07
382.4	2.4652e-07
382.6	2.3963e-07
382.8	2.3294e-07
383.0	2.2643e-07
383.2	2.201e-07
383.4	2.1396e-07
383.6	2.0798e-07
383.8	2.0217e-07
384.0	1.7109e-07
384.2	1.3859e-07
384.4	1.1226e-07
384.6	9.0936e-08
384.8	7.3662e-08
385.0	5.9669e-08
385.2	4.8334e-08
385.4	3.9152e-08
385.6	3.1714e-08
385.8	2.569e-08
386.0	2.6607e-08
386.2	3.2462e-08
386.4	3.9606e-08
386.6	4.8323e-08
386.8	5.8957e-08
387.0	7.1932e-08
387.2	8.7763e-08
387.4	1.0708e-07
387.6	1.3064e-07
387.8	1.5939e-07
388.0	1.8416e-07
388.2	1.9852e-07
388.4	2.1399e-07
388.6	2.3068e-07
388.8	2.4866e-07
389.0	2.6805e-07
389.2	2.8895e-07
389.4	3.1148e-07
389.6	3.3576e-07
389.8	3.6194e-07
390.0	3.8276e-07
390.2	3.5985e-07
390.4	3.383e-07
390.6	3.1805e-07
390.8	2.9901e-07
391.0	2.8111e-07
391.2	2.6428e-07
391.4	2.4846e-07
391.6	2.3359e-07
391.8	2.196e-07
392.0	2.1551e-07
392.2	2.1233e-07
392.4	2.092e-07
392.6	2.0611e-07
392.8	2.0307e-07
393.0	2.0008e-07
393.2	1.9713e-07
393.4	1.9422e-07
393.6	1.9136e-07
393.8	1.8854e-07
394.0	2.0101e-07
394.2	2.1972e-07
394.4	2.4017e-07
394.6	2.6252e-07
394.8	2.8695e-07
395.0	3.1366e-07
395.2	3.4285e-07
395.4	3.7476e-07
395.6	4.0963e-07
395.8	4.4776e-07
396.0	4.4939e-07
396.2	4.261e-07
396.4	4.0401e-07
396.6	3.8306e-07
396.8	3.632e-07
397.0	3.4437e-07
397.2	3.2652e-07
397.4	3.0959e-07
397.6	2.9354e-07
397.8	2.7832e-07
398.0	2.6375e-07
398.2	2.4979e-07
398.4	2.3656e-07
398.6	2.2403e-07
398.8	2.1217e-07
399.0	2.0093e-07
399.2	1.9029e-07
399.4	1.8021e-07
399.6	1.7067e-07
399.8	1.6163e-07
400.0	1.5729e-07
400.2	1.7855e-07
400.4	2.0269e-07
400.6	2.301e-07
400.8	2.6121e-07
401.0	2.9652e-07
401.2	3.3661e-07
401.4	3.8213e-07
401.6	4.3379e-07
401.8	4.9244e-07
402.0	3.6757e-07
402.2	2.5912e-07
402.4	1.8267e-07
402.6	1.2877e-07
402.8	9.0777e-08
403.0	6.3993e-08
403.2	4.5112e-08
403.4	3.1802e-08
403.6	2.2419e-08
403.8	1.5804e-08
404.0	1.5514e-08
404.2	1.7213e-08
404.4	1.9098e-08
404.6	2.1189e-08
404.8	2.351e-08
405.0	2.6084e-08
405.2	2.8941e-08
405.4	3.211e-08
405.6	3.5627e-08
405.8	3.9528e-08
406.0	4.3573e-08
406.2	4.7806e-08
406.4	5.245e-08
406.6	5.7546e-08
406.8	6.3136e-08
407.0	6.927e-08
407.2	7.5999e-08
407.4	8.3382e-08
407.6	9.1483e-08
407.8	1.0037e-07
408.0	1.0767e-07
408.2	1.1212e-07
408.4	1.1675e-07
408.6	1.2156e-07
408.8	1.2658e-07
409.0	1.3181e-07
409.2	1.3725e-07
409.4	1.4291e-07
409.6	1.4881e-07
409.8	1.5495e-07
410.0	1.6163e-07
410.2	1.7038e-07
410.4	1.796e-07
410.6	1.8932e-07
410.8	1.9957e-07
411.0	2.1037e-07
411.2	2.2176e-07
411.4	2.3376e-07
411.6	2.4642e-07
411.8	2.5976e-07
412.0	2.5987e-07
412.2	2.5804e-07
412.4	2.5622e-07
412.6	2.5442e-07
412.8	2.5263e-07
413.0	2.5085e-07
413.2	2.4908e-07
413.4	2.4733e-07
413.6	2.4559e-07
413.8	2.4386e-07
414.0	2.3697e-07
414.2	2.2845e-07
414.4	2.2023e-07
414.6	2.123e-07
414.8	2.0466e-07
415.0	1.973e-07
415.2	1.902e-07
415.4	1.8336e-07
415.6	1.7676e-07
415.8	1.704e-07
416.0	1.5338e-07
416.2	1.315e-07
416.4	1.1275e-07
416.6	9.6664e-08
416.8	8.2877e-08
417.0	7.1056e-08
417.2	6.0921e-08
417.4	5.2232e-08
417.6	4.4782e-08
417.8	3.8395e-08
418.0	3.8013e-08
418.2	4.5033e-08
418.4	5.3349e-08
418.6	6.3201e-08
418.8	7.4873e-08
419.0	8.87e-08
419.2	1.0508e-07
419.4	1.2449e-07
419.6	1.4747e-07
419.8	1.7471e-07
420.0	2.0025e-07
420.2	1.9169e-07
420.4	1.8349e-07
420.6	1.7565e-07
420.8	1.6814e-07
421.0	1.6096e-07
421.2	1.5408e-07
421.4	1.4749e-07
421.6	1.4119e-07
421.8	1.3515e-07
422.0	1.3187e-07
422.2	1.2896e-07
422.4	1.2612e-07
422.6	1.2335e-07
422.8	1.2063e-07
423.0	1.1798e-07
423.2	1.1538e-07
423.4	1.1284e-07
423.6	1.1036e-07
423.8	1.0793e-07
424.0	1.0555e-07
424.2	1.0323e-07
424.4	1.0095e-07
424.6	8.2265e-08
424.8	6.5311e-08
425.0	5.1851e-08
425.2	4.1165e-08
425.4	3.2681e-08
425.6	2.5946e-08
425.8	2.0598e-08
426.0	1.6353e-08
426.2	1.2983e-08
426.4	1.1276e-08
426.6	1.2917e-08
426.8	1.4797e-08
427.0	1.695e-08
427.2	1.9417e-08
427.4	2.2242e-08
427.6	2.5479e-08
427.8	2.9187e-08
428.0	3.3435e-08
428.2	3.8301e-08
428.4	4.3413e-08
428.6	4.5172e-08
428.8	4.7003e-08
429.0	4.8908e-08
429.2	5.089e-08
429.4	5.2952e-08
429.6	5.5098e-08
429.8	5.7331e-08
430.0	5.9654e-08
430.2	6.2071e-08
430.4	6.4587e-08
430.6	7.0719e-08
430.8	7.7535e-08
431.0	8.5008e-08
431.2	9.3201e-08
431.4	1.0218e-07
431.6	1.1203e-07
431.8	1.2283e-07
432.0	1.3467e-07
432.2	1.4765e-07
432.4	1.6188e-07
432.6	1.7748e-07
432.8	1.9459e-07
433.0	2.0894e-07
433.2	2.1923e-07
433.4	2.3002e-07
433.6	2.4135e-07
433.8	2.5324e-07
434.0	2.6571e-07
434.2	2.788e-07
434.4	2.9253e-07
434.6	3.0694e-07
434.8	3.2206e-07
435.0	1.6048e-07
435.2	1.2017e-07
435.4	8.9979e-08
435.6	6.7375e-08
435.8	5.0449e-08
436.0	3.7775e-08
436.2	2.8285e-08
436.4	2.1179e-08
436.6	1.5859e-08
436.8	1.1875e-08
437.0	8.8916e-09
437.2	1.0995e-08
437.4	1.3629e-08
437.6	1.6896e-08
437.8	2.0944e-08
438.0	2.5964e-08
438.2	3.2185e-08
438.4	3.9898e-08
438.6	4.946e-08
438.8	6.1312e-08
439.0	7.6005e-08
439.2	8.7499e-08
439.4	9.9574e-08
439.6	1.1331e-07
439.8	1.2895e-07
440.0	1.4675e-07
440.2	1.67e-07
440.4	1.9004e-07
440.6	2.1627e-07
440.8	2.4612e-07
441.0	2.8008e-07
441.2	2.9387e-07
441.4	2.9943e-07
441.6	3.0511e-07
441.8	3.1089e-07
442.0	3.1678e-07
442.2	3.2278e-07
442.4	3.2889e-07
442.6	3.3512e-07
442.8	3.4147e-07
443.0	3.4794e-07
443.2	3.0076e-07
443.4	2.3402e-07
443.6	1.8209e-07
443.8	1.4168e-07
444.0	1.1024e-07
444.2	8.5776e-08
444.4	6.6741e-08
444.6	5.1931e-08
444.8	4.0407e-08
445.0	3.144e-08
445.2	3.2646e-08
445.4	3.3898e-08
445.6	3.5199e-08
445.8	3.6549e-08
446.0	3.7951e-08
446.2	3.9406e-08
446.4	4.0918e-08
446.6	4.2487e-08
446.8	4.4117e-08
447.0	4.5809e-08
447.2	4.5701e-08
447.4	4.5575e-08
447.6	4.5449e-08
447.8	4.5323e-08
448.0	4.5198e-08
448.2	4.5073e-08
448.4	4.4949e-08
448.6	4.4824e-08
448.8	4.4701e-08
449.0	4.4577e-08
449.2	5.1062e-08
449.4	5.9769e-08
449.6	6.996e-08
449.8	8.1889e-08
450.0	9.5853e-08
450.2	1.122e-07
450.4	1.3133e-07
450.6	1.5372e-07
450.8	1.7993e-07
451.0	2.1062e-07
451.2	2.3023e-07
451.4	2.457e-07
451.6	2.6221e-07
451.8	2.7982e-07
452.0	2.9862e-07
452.2	3.1869e-07
452.4	3.401e-07
452.6	3.6295e-07
452.8	3.8733e-07
453.0	4.1335e-07
453.2	3.5517e-07
453.4	2.6721e-07
453.6	2.0103e-07
453.8	1.5125e-07
454.0	1.1379e-07
454.2	8.5611e-08
454.4	6.4409e-08
454.6	4.8458e-08
454.8	3.6457e-08
455.0	2.7429e-08
455.2	2.9153e-08
455.4	3.0986e-08
455.6	3.2934e-08
455.8	3.5004e-08
456.0	3.7205e-08
456.2	3.9544e-08
456.4	4.203e-08
456.6	4.4672e-08
456.8	4.748e-08
457.0	5.0376e-08
457.2	3.755e-08
457.4	2.7989e-08
457.6	2.0863e-08
457.8	1.5551e-08
458.0	1.1592e-08
458.2	8.6403e-09
458.4	6.4404e-09
458.6	4.8006e-09
458.8	3.5783e-09
459.0	2.6673e-09
459.2	3.2604e-09
459.4	4.2501e-09
459.6	5.5402e-09
459.8	7.2219e-09
460.0	9.4141e-09
460.2	1.2272e-08
460.4	1.5997e-08
460.6	2.0852e-08
460.8	2.7182e-08
461.0	3.5433e-08
461.2	3.0583e-08
461.4	2.3339e-08
461.6	1.781e-08
461.8	1.3591e-08
462.0	1.0372e-08
462.2	7.9149e-09
462.4	6.0401e-09
462.6	4.6093e-09
462.8	3.5174e-09
463.0	2.6842e-09
463.2	3.1458e-09
463.4	4.6215e-09
463.6	6.7893e-09
463.8	9.9742e-09
464.0	1.4653e-08
464.2	2.1526e-08
464.4	3.1624e-08
464.6	4.6459e-08
464.8	6.8253e-08
465.0	1.0027e-07
465.2	1.1082e-07
465.4	1.2248e-07
465.6	1.3537e-07
465.8	1.4961e-07
466.0	1.6535e-07
466.2	1.8275e-07
466.4	2.0198e-07
466.6	2.2323e-07
466.8	2.4672e-07
467.0	2.7268e-07
467.2	2.3573e-07
467.4	2.0226e-07
467.6	1.7353e-07
467.8	1.4889e-07
468.0	1.2774e-07
468.2	1.096e-07
468.4	9.4036e-08
468.6	8.0681e-08
468.8	6.9223e-08
469.0	5.9392e-08
469.2	5.736e-08
469.4	5.6521e-08
469.6	5.5694e-08
469.8	5.4879e-08
470.0	5.4075e-08
470.2	5.3284e-08
470.4	5.2504e-08
470.6	5.1736e-08
470.8	5.0979e-08
471.0	5.0233e-08
471.2	4.5075e-08
471.4	3.9171e-08
471.6	3.404e-08
471.8	2.9582e-08
472.0	2.5707e-08
472.2	2.234e-08
472.4	1.9414e-08
472.6	1.6871e-08
472.8	1.4661e-08
473.0	1.2741e-08
473.2	1.3421e-08
473.4	1.579e-08
473.6	1.8576e-08
473.8	2.1855e-08
474.0	2.5713e-08
474.2	3.0251e-08
474.4	3.559e-08
474.6	4.1872e-08
474.8	4.9262e-08
475.0	5.7956e-08
475.2	6.7207e-08
475.4	7.7935e-08
475.6	9.0375e-08
475.8	1.048e-07
476.0	1.2153e-07
476.2	1.4093e-07
476.4	1.6342e-07
476.6	1.8951e-07
476.8	2.1976e-07
477.0	2.5484e-07
477.2	2.2467e-07
477.4	1.9753e-07
477.6	1.7366e-07
477.8	1.5268e-07
478.0	1.3424e-07
478.2	1.1802e-07
478.4	1.0376e-07
478.6	9.1225e-08
478.8	8.0204e-08
479.0	7.0515e-08
479.2	7.9545e-08
479.4	9.2835e-08
479.6	1.0835e-07
479.8	1.2645e-07
480.0	1.4757e-07
480.2	1.7223e-07
480.4	2.01e-07
480.6	2.3459e-07
480.8	2.7378e-07
481.0	3.1952e-07
481.2	2.9407e-07
481.4	2.5261e-07
481.6	2.17e-07
481.8	1.8641e-07
482.0	1.6013e-07
482.2	1.3755e-07
482.4	1.1816e-07
482.6	1.015e-07
482.8	8.7193e-08
483.0	7.4901e-08
483.2	5.8174e-08
483.4	4.3042e-08
483.6	3.1847e-08
483.8	2.3563e-08
484.0	1.7434e-08
484.2	1.29e-08
484.4	9.5443e-09
484.6	7.0618e-09
484.8	5.225e-09
485.0	3.866e-09
485.2	3.5395e-09
485.4	3.2406e-09
485.6	2.9669e-09
485.8	2.7164e-09
486.0	2.487e-09
486.2	2.2769e-09
486.4	2.0847e-09
486.6	1.9086e-09
486.8	1.7474e-09
487.0	1.5999e-09
487.2	1.5873e-09
487.4	1.5807e-09
487.6	1.5743e-09
487.8	1.5678e-09
488.0	1.5613e-09
488.2	1.5549e-09
488.4	1.5485e-09
488.6	1.5422e-09
488.8	1.5359e-09
489.0	1.5295e-09
489.2	1.5234e-09
489.4	1.5172e-09
489.6	1.5111e-09
489.8	1.505e-09
490.0	1.499e-09
490.2	1.4929e-09
490.4	1.4869e-09
490.6	1.4809e-09
490.8	1.475e-09
491.0	1.469e-09
491.2	1.4633e-09
491.4	1.4576e-09
491.6	1.452e-09
491.8	1.4463e-09
492.0	1.4407e-09
492.2	1.4351e-09
492.4	1.4296e-09
492.6	1.424e-09
492.8	1.4185e-09
493.0	1.413e-09
493.2	1.7044e-09
493.4	2.2691e-09
493.6	3.0208e-09
493.8	4.0214e-09
494.0	5.3536e-09
494.2	7.1271e-09
494.4	9.4882e-09
494.6	1.2631e-08
494.8	1.6816e-08
495.0	2.2386e-08
495.2	1.8057e-08
495.4	1.4565e-08
495.6	1.1749e-08
495.8	9.4769e-09
496.0	7.6443e-09
496.2	6.166e-09
496.4	4.9737e-09
496.6	4.0119e-09
496.8	3.2361e-09
497.0	2.6103e-09
497.2	3.0458e-09
497.4	3.6236e-09
497.6	4.3111e-09
497.8	5.129e-09
498.0	6.1021e-09
498.2	7.2598e-09
498.4	8.6371e-09
498.6	1.0276e-08
498.8	1.2225e-08
499.0	1.4545e-08
499.2	1.487e-08
499.4	1.4817e-08
499.6	1.4764e-08
499.8	1.4712e-08
500.0	1.4659e-08
500.2	1.4607e-08
500.4	1.4555e-08
500.6	1.4503e-08
500.8	1.4451e-08
501.0	1.4399e-08
501.2	1.1889e-08
501.4	9.2652e-09
501.6	7.2205e-09
501.8	5.627e-09
502.0	4.3852e-09
502.2	3.4175e-09
502.4	2.6633e-09
502.6	2.0755e-09
502.8	1.6175e-09
503.0	1.2605e-09
503.2	1.1597e-09
503.4	1.1557e-09
503.6	1.1518e-09
503.8	1.1478e-09
504.0	1.1439e-09
504.2	1.14e-09
504.4	1.1361e-09
504.6	1.1322e-09
504.8	1.1283e-09
505.0	1.1244e-09
505.2	1.311e-09
505.4	1.5285e-09
505.6	1.7821e-09
505.8	2.0778e-09
506.0	2.4226e-09
506.2	2.8246e-09
506.4	3.2933e-09
506.6	3.8397e-09
506.8	4.4768e-09
507.0	5.2196e-09
507.2	5.9081e-09
507.4	6.6802e-09
507.6	7.5532e-09
507.8	8.5403e-09
508.0	9.6565e-09
508.2	1.0918e-08
508.4	1.2345e-08
508.6	1.3959e-08
508.8	1.5783e-08
509.0	1.7846e-08
509.2	1.7034e-08
509.4	1.5871e-08
509.6	1.4787e-08
509.8	1.3777e-08
510.0	1.2836e-08
510.2	1.196e-08
510.4	1.1143e-08
510.6	1.0382e-08
510.8	9.6728e-09
511.0	9.0122e-09
511.2	8.1271e-09
511.4	7.2656e-09
511.6	6.4955e-09
511.8	5.8069e-09
512.0	5.1914e-09
512.2	4.6411e-09
512.4	4.1491e-09
512.6	3.7093e-09
512.8	3.3161e-09
513.0	2.9646e-09
513.2	3.0066e-09
513.4	3.2145e-09
513.6	3.4368e-09
513.8	3.6745e-09
514.0	3.9286e-09
514.2	4.2002e-09
514.4	4.4907e-09
514.6	4.8012e-09
514.8	5.1332e-09
515.0	5.4882e-09
515.2	4.5883e-09
515.4	3.8359e-09
515.6	3.207e-09
515.8	2.6811e-09
516.0	2.2415e-09
516.2	1.8739e-09
516.4	1.5667e-09
516.6	1.3098e-09
516.8	1.095e-09
517.0	9.1546e-10
517.2	9.9588e-10
517.4	1.1067e-09
517.6	1.2299e-09
517.8	1.3668e-09
518.0	1.519e-09
518.2	1.688e-09
518.4	1.8759e-09
518.6	2.0847e-09
518.8	2.3168e-09
519.0	2.5747e-09
519.2	2.6148e-09
519.4	2.6104e-09
519.6	2.606e-09
519.8	2.6016e-09
520.0	2.5972e-09
520.2	2.5929e-09
520.4	2.5885e-09
520.6	2.5841e-09
520.8	2.5798e-09
521.0	2.5754e-09
521.2	2.9516e-09
521.4	3.5334e-09
521.6	4.2298e-09
521.8	5.0636e-09
522.0	6.0617e-09
522.2	7.2565e-09
522.4	8.6868e-09
522.6	1.0399e-08
522.8	1.2449e-08
523.0	1.4903e-08
523.2	1.5221e-08
523.4	1.4451e-08
523.6	1.372e-08
523.8	1.3026e-08
524.0	1.2367e-08
524.2	1.1741e-08
524.4	1.1147e-08
524.6	1.0583e-08
524.8	1.0048e-08
525.0	9.5397e-09
525.2	7.4424e-09
525.4	5.8062e-09
525.6	4.5298e-09
525.8	3.5339e-09
526.0	2.757e-09
526.2	2.1509e-09
526.4	1.678e-09
526.6	1.3091e-09
526.8	1.0213e-09
527.0	7.9678e-10
527.2	7.8325e-10
527.4	7.8141e-10
527.6	7.7956e-10
527.8	7.7773e-10
528.0	7.7589e-10
528.2	7.7406e-10
528.4	7.7224e-10
528.6	7.7042e-10
528.8	7.686e-10
529.0	7.6679e-10
529.2	7.6539e-10
529.4	7.6405e-10
529.6	7.6272e-10
529.8	7.6139e-10
530.0	7.6006e-10
530.2	7.5873e-10
530.4	7.5741e-10
530.6	7.5609e-10
530.8	7.5477e-10
531.0	7.5346e-10
531.2	7.5188e-10
531.4	7.5024e-10
531.6	7.486e-10
531.8	7.4696e-10
532.0	7.4533e-10
