Typical Measured Spectrum of Semrock FF01-642/10 Optical Filter	
For wavelengths between 320 and 1120 nm, values near or below 3e-7 (Optical Density 6.5) are measurement noise limited.
For wavelengths < 320 nm and > 1120 nm, values near or below 3e-6 (Optical Density 5.5) are measurement noise limited. 
Data format:  Wavelength (nm) <tab> Transmission (0 to 1)
345.0	6.3741e-07
345.2	6.56e-07
345.4	6.7514e-07
345.6	6.9484e-07
345.8	7.151e-07
346.0	7.3596e-07
346.2	7.5743e-07
346.4	7.7953e-07
346.6	8.0227e-07
346.8	8.2567e-07
347.0	8.4976e-07
347.2	8.7455e-07
347.4	9.0006e-07
347.6	9.2632e-07
347.8	9.5334e-07
348.0	8.4469e-07
348.2	7.2503e-07
348.4	6.2232e-07
348.6	5.3416e-07
348.8	4.5849e-07
349.0	3.9354e-07
349.2	3.3779e-07
349.4	2.8994e-07
349.6	2.4886e-07
349.8	2.1361e-07
350.0	1.8335e-07
350.2	1.5737e-07
350.4	1.3508e-07
350.6	1.1594e-07
350.8	9.9519e-08
351.0	8.5421e-08
351.2	7.332e-08
351.4	6.2933e-08
351.6	5.4018e-08
351.8	4.6365e-08
352.0	4.2786e-08
352.2	4.2328e-08
352.4	4.1875e-08
352.6	4.1427e-08
352.8	4.0984e-08
353.0	4.0546e-08
353.2	4.0112e-08
353.4	3.9683e-08
353.6	3.9258e-08
353.8	3.8838e-08
354.0	3.8423e-08
354.2	3.8011e-08
354.4	3.7605e-08
354.6	3.7202e-08
354.8	3.6804e-08
355.0	3.6411e-08
355.2	3.6044e-08
355.4	3.5681e-08
355.6	3.5321e-08
355.8	3.4965e-08
356.0	3.4613e-08
356.2	3.4264e-08
356.4	3.3919e-08
356.6	3.3577e-08
356.8	3.3239e-08
357.0	3.2904e-08
357.2	3.2573e-08
357.4	3.2244e-08
357.6	3.192e-08
357.8	3.1598e-08
358.0	3.5089e-08
358.2	3.9962e-08
358.4	4.5511e-08
358.6	5.1831e-08
358.8	5.9028e-08
359.0	6.7225e-08
359.2	7.656e-08
359.4	8.7192e-08
359.6	9.93e-08
359.8	1.1309e-07
360.0	1.2879e-07
360.2	1.4668e-07
360.4	1.6705e-07
360.6	1.9024e-07
360.8	2.1666e-07
361.0	2.4675e-07
361.2	2.8101e-07
361.4	3.2003e-07
361.6	3.6447e-07
361.8	4.1508e-07
362.0	4.1656e-07
362.2	3.711e-07
362.4	3.306e-07
362.6	2.9451e-07
362.8	2.6237e-07
363.0	2.3374e-07
363.2	2.0823e-07
363.4	1.855e-07
363.6	1.6525e-07
363.8	1.4722e-07
364.0	1.3115e-07
364.2	1.1684e-07
364.4	1.0409e-07
364.6	9.2726e-08
364.8	8.2606e-08
365.0	7.359e-08
365.2	6.8423e-08
365.4	6.3618e-08
365.6	5.9151e-08
365.8	5.4997e-08
366.0	5.1135e-08
366.2	4.7544e-08
366.4	4.4205e-08
366.6	4.1101e-08
366.8	3.8215e-08
367.0	3.5531e-08
367.2	3.3036e-08
367.4	3.0716e-08
367.6	2.8559e-08
367.8	2.6554e-08
368.0	3.0473e-08
368.2	3.6683e-08
368.4	4.4157e-08
368.6	5.3155e-08
368.8	6.3985e-08
369.0	7.7023e-08
369.2	9.2718e-08
369.4	1.1161e-07
369.6	1.3435e-07
369.8	1.6173e-07
370.0	1.9468e-07
370.2	2.3435e-07
370.4	2.821e-07
370.6	3.3958e-07
370.8	4.0878e-07
371.0	4.9207e-07
371.2	5.9233e-07
371.4	7.1303e-07
371.6	8.5832e-07
371.8	1.0332e-06
372.0	1.0742e-06
372.2	9.7805e-07
372.4	8.9053e-07
372.6	8.1085e-07
372.8	7.3829e-07
373.0	6.7223e-07
373.2	6.1208e-07
373.4	5.5731e-07
373.6	5.0744e-07
373.8	4.6204e-07
374.0	4.2069e-07
374.2	3.8305e-07
374.4	3.4877e-07
374.6	3.1756e-07
374.8	2.8915e-07
375.0	2.6328e-07
375.2	3.6129e-07
375.4	4.9578e-07
375.6	6.8035e-07
375.8	9.3363e-07
376.0	1.2812e-06
376.2	1.7582e-06
376.4	2.4127e-06
376.6	3.3108e-06
376.8	4.5434e-06
377.0	6.2348e-06
377.2	6.9312e-06
377.4	6.7348e-06
377.6	6.5439e-06
377.8	6.3585e-06
378.0	6.1783e-06
378.2	6.0032e-06
378.4	5.8331e-06
378.6	5.6678e-06
378.8	5.5071e-06
379.0	5.3511e-06
379.2	5.1994e-06
379.4	5.0521e-06
379.6	4.9089e-06
379.8	4.7698e-06
380.0	4.6346e-06
380.2	4.5033e-06
380.4	4.3757e-06
380.6	4.2517e-06
380.8	4.1312e-06
381.0	4.0141e-06
381.2	3.763e-06
381.4	3.2743e-06
381.6	2.8492e-06
381.8	2.4792e-06
382.0	2.1573e-06
382.2	1.8771e-06
382.4	1.6334e-06
382.6	1.4213e-06
382.8	1.2367e-06
383.0	1.0761e-06
383.2	9.364e-07
383.4	8.148e-07
383.6	7.09e-07
383.8	6.1693e-07
384.0	5.3682e-07
384.2	4.6711e-07
384.4	4.0646e-07
384.6	3.5368e-07
384.8	3.0775e-07
385.0	2.6779e-07
385.2	2.3513e-07
385.4	2.4103e-07
385.6	2.4708e-07
385.8	2.5328e-07
386.0	2.5964e-07
386.2	2.6615e-07
386.4	2.7284e-07
386.6	2.7968e-07
386.8	2.867e-07
387.0	2.939e-07
387.2	3.0128e-07
387.4	3.0884e-07
387.6	3.1659e-07
387.8	3.2454e-07
388.0	3.3268e-07
388.2	3.4103e-07
388.4	3.4959e-07
388.6	3.5837e-07
388.8	3.6736e-07
389.0	3.7658e-07
389.2	3.8604e-07
389.4	3.276e-07
389.6	2.6479e-07
389.8	2.1402e-07
390.0	1.7299e-07
390.2	1.3982e-07
390.4	1.1302e-07
390.6	9.1348e-08
390.8	7.3835e-08
391.0	5.9679e-08
391.2	4.8237e-08
391.4	3.8989e-08
391.6	3.1513e-08
391.8	2.5472e-08
392.0	2.0588e-08
392.2	2.0428e-08
392.4	2.0269e-08
392.6	2.0111e-08
392.8	1.9955e-08
393.0	1.9799e-08
393.2	1.9645e-08
393.4	1.9493e-08
393.6	1.9341e-08
393.8	1.919e-08
394.0	1.9041e-08
394.2	1.8893e-08
394.4	1.8746e-08
394.6	1.86e-08
394.8	1.8455e-08
395.0	1.8312e-08
395.2	1.8169e-08
395.4	1.8028e-08
395.6	1.7888e-08
395.8	1.7749e-08
396.0	1.761e-08
396.2	1.7457e-08
396.4	1.7303e-08
396.6	1.7151e-08
396.8	1.7e-08
397.0	1.685e-08
397.2	1.6701e-08
397.4	1.6554e-08
397.6	1.6408e-08
397.8	1.6264e-08
398.0	1.612e-08
398.2	1.5978e-08
398.4	1.5837e-08
398.6	1.5698e-08
398.8	1.5559e-08
399.0	1.5422e-08
399.2	1.5286e-08
399.4	1.5152e-08
399.6	1.5018e-08
399.8	1.4886e-08
400.0	1.4755e-08
400.2	1.673e-08
400.4	2.0362e-08
400.6	2.4782e-08
400.8	3.0162e-08
401.0	3.671e-08
401.2	4.4679e-08
401.4	5.4379e-08
401.6	6.6184e-08
401.8	8.0552e-08
402.0	9.8039e-08
402.2	1.1932e-07
402.4	1.4523e-07
402.6	1.7675e-07
402.8	2.1513e-07
403.0	2.6183e-07
403.2	3.1867e-07
403.4	3.8785e-07
403.6	4.7205e-07
403.8	5.7453e-07
404.0	6.9926e-07
404.2	7.7268e-07
404.4	7.4511e-07
404.6	7.1852e-07
404.8	6.9288e-07
405.0	6.6816e-07
405.2	6.4431e-07
405.4	6.2132e-07
405.6	5.9915e-07
405.8	5.7777e-07
406.0	5.5715e-07
406.2	5.3727e-07
406.4	5.181e-07
406.6	4.9961e-07
406.8	4.8178e-07
407.0	4.6459e-07
407.2	4.4801e-07
407.4	4.3202e-07
407.6	4.1661e-07
407.8	4.0174e-07
408.0	3.8741e-07
408.2	3.8409e-07
408.4	4.2859e-07
408.6	4.7825e-07
408.8	5.3367e-07
409.0	5.9551e-07
409.2	6.6451e-07
409.4	7.415e-07
409.6	8.2742e-07
409.8	9.233e-07
410.0	1.0303e-06
410.2	1.1497e-06
410.4	1.2829e-06
410.6	1.4315e-06
410.8	1.5974e-06
411.0	1.7825e-06
411.2	1.989e-06
411.4	2.2195e-06
411.6	2.4767e-06
411.8	2.7636e-06
412.0	3.0839e-06
412.2	3.4412e-06
412.4	3.5158e-06
412.6	3.584e-06
412.8	3.6535e-06
413.0	3.7243e-06
413.2	3.7965e-06
413.4	3.8702e-06
413.6	3.9452e-06
413.8	4.0217e-06
414.0	4.0997e-06
414.2	4.1792e-06
414.4	4.2602e-06
414.6	4.3428e-06
414.8	4.427e-06
415.0	4.5128e-06
415.2	4.6003e-06
415.4	4.6895e-06
415.6	4.7804e-06
415.8	4.8731e-06
416.0	4.9676e-06
416.2	5.0639e-06
416.4	5.1258e-06
416.6	5.1776e-06
416.8	5.2299e-06
417.0	5.2827e-06
417.2	5.3361e-06
417.4	5.39e-06
417.6	5.4444e-06
417.8	5.4994e-06
418.0	5.555e-06
418.2	5.6111e-06
418.4	5.6678e-06
418.6	5.725e-06
418.8	5.7828e-06
419.0	5.8413e-06
419.2	5.9003e-06
419.4	5.9599e-06
419.6	6.0201e-06
419.8	6.0809e-06
420.0	6.1423e-06
420.2	6.2043e-06
420.4	6.3354e-06
420.6	6.5203e-06
420.8	6.7106e-06
421.0	6.9065e-06
421.2	7.1081e-06
421.4	7.3155e-06
421.6	7.5291e-06
421.8	7.7488e-06
422.0	7.975e-06
422.2	8.2078e-06
422.4	8.4473e-06
422.6	8.6939e-06
422.8	8.9476e-06
423.0	9.2088e-06
423.2	9.4776e-06
423.4	9.7542e-06
423.6	1.0039e-05
423.8	1.0332e-05
424.0	1.0634e-05
424.2	1.0944e-05
424.4	1.0994e-05
424.6	1.065e-05
424.8	1.0317e-05
425.0	9.9941e-06
425.2	9.6815e-06
425.4	9.3787e-06
425.6	9.0854e-06
425.8	8.8012e-06
426.0	8.5259e-06
426.2	8.2592e-06
426.4	8.0009e-06
426.6	7.7506e-06
426.8	7.5082e-06
427.0	7.2734e-06
427.2	7.0562e-06
427.4	6.8455e-06
427.6	6.6412e-06
427.8	6.4429e-06
428.0	6.2505e-06
428.2	6.0639e-06
428.4	5.8829e-06
428.6	5.7072e-06
428.8	5.5368e-06
429.0	5.4063e-06
429.2	5.3291e-06
429.4	5.253e-06
429.6	5.1779e-06
429.8	5.104e-06
430.0	5.0311e-06
430.2	4.9593e-06
430.4	4.8884e-06
430.6	4.8186e-06
430.8	4.7498e-06
431.0	4.682e-06
431.2	4.6151e-06
431.4	4.5492e-06
431.6	4.4842e-06
431.8	4.4202e-06
432.0	4.3571e-06
432.2	4.2949e-06
432.4	4.2335e-06
432.6	4.1731e-06
432.8	4.1135e-06
433.0	4.0823e-06
433.2	4.1787e-06
433.4	4.2774e-06
433.6	4.3784e-06
433.8	4.4818e-06
434.0	4.5876e-06
434.2	4.6959e-06
434.4	4.8068e-06
434.6	4.9203e-06
434.8	5.0365e-06
435.0	5.1554e-06
435.2	5.2772e-06
435.4	5.4018e-06
435.6	5.5293e-06
435.8	5.6599e-06
436.0	5.7935e-06
436.2	5.9303e-06
436.4	6.0704e-06
436.6	6.2137e-06
436.8	6.3604e-06
437.0	6.5106e-06
437.2	6.4233e-06
437.4	6.3288e-06
437.6	6.2356e-06
437.8	6.1438e-06
438.0	6.0534e-06
438.2	5.9643e-06
438.4	5.8765e-06
438.6	5.79e-06
438.8	5.7048e-06
439.0	5.6208e-06
439.2	5.538e-06
439.4	5.4565e-06
439.6	5.3762e-06
439.8	5.297e-06
440.0	5.2191e-06
440.2	5.1422e-06
440.4	5.0665e-06
440.6	4.992e-06
440.8	4.9185e-06
441.0	4.8461e-06
441.2	4.7895e-06
441.4	4.7383e-06
441.6	4.6876e-06
441.8	4.6374e-06
442.0	4.5878e-06
442.2	4.5387e-06
442.4	4.4901e-06
442.6	4.442e-06
442.8	4.3945e-06
443.0	4.3474e-06
443.2	4.3009e-06
443.4	4.2549e-06
443.6	4.2093e-06
443.8	4.1643e-06
444.0	4.1197e-06
444.2	4.0756e-06
444.4	4.032e-06
444.6	3.9888e-06
444.8	3.9462e-06
445.0	3.9039e-06
445.2	3.9465e-06
445.4	4.0551e-06
445.6	4.1667e-06
445.8	4.2814e-06
446.0	4.3992e-06
446.2	4.5203e-06
446.4	4.6447e-06
446.6	4.7726e-06
446.8	4.9039e-06
447.0	5.0389e-06
447.2	5.1775e-06
447.4	5.32e-06
447.6	5.4665e-06
447.8	5.6169e-06
448.0	5.7715e-06
448.2	5.9303e-06
448.4	6.0936e-06
448.6	6.2613e-06
448.8	6.4336e-06
449.0	6.6106e-06
449.2	6.7317e-06
449.4	6.7591e-06
449.6	6.7866e-06
449.8	6.8142e-06
450.0	6.8419e-06
450.2	6.8697e-06
450.4	6.8977e-06
450.6	6.9257e-06
450.8	6.9539e-06
451.0	6.9822e-06
451.2	7.0106e-06
451.4	7.0391e-06
451.6	7.0677e-06
451.8	7.0964e-06
452.0	7.1253e-06
452.2	7.1543e-06
452.4	7.1834e-06
452.6	7.2126e-06
452.8	7.2419e-06
453.0	7.2714e-06
453.2	7.285e-06
453.4	7.242e-06
453.6	7.1993e-06
453.8	7.1568e-06
454.0	7.1146e-06
454.2	7.0726e-06
454.4	7.0309e-06
454.6	6.9894e-06
454.8	6.9482e-06
455.0	6.9072e-06
455.2	6.8664e-06
455.4	6.8259e-06
455.6	6.7856e-06
455.8	6.7456e-06
456.0	6.7058e-06
456.2	6.6663e-06
456.4	6.6269e-06
456.6	6.5878e-06
456.8	6.549e-06
457.0	6.5103e-06
457.2	6.4635e-06
457.4	6.2978e-06
457.6	6.1363e-06
457.8	5.9789e-06
458.0	5.8256e-06
458.2	5.6762e-06
458.4	5.5307e-06
458.6	5.3889e-06
458.8	5.2507e-06
459.0	5.1161e-06
459.2	4.9849e-06
459.4	4.8571e-06
459.6	4.7325e-06
459.8	4.6112e-06
460.0	4.4929e-06
460.2	4.3777e-06
460.4	4.2655e-06
460.6	4.1561e-06
460.8	4.0495e-06
461.0	3.9457e-06
461.2	3.8445e-06
461.4	3.9416e-06
461.6	4.0578e-06
461.8	4.1774e-06
462.0	4.3005e-06
462.2	4.4273e-06
462.4	4.5578e-06
462.6	4.6922e-06
462.8	4.8305e-06
463.0	4.9729e-06
463.2	5.1195e-06
463.4	5.2704e-06
463.6	5.4258e-06
463.8	5.5857e-06
464.0	5.7504e-06
464.2	5.9199e-06
464.4	6.0944e-06
464.6	6.2741e-06
464.8	6.4591e-06
465.0	6.6495e-06
465.2	6.8455e-06
465.4	6.5791e-06
465.6	6.2119e-06
465.8	5.8653e-06
466.0	5.538e-06
466.2	5.2289e-06
466.4	4.9371e-06
466.6	4.6616e-06
466.8	4.4015e-06
467.0	4.1558e-06
467.2	3.9239e-06
467.4	3.7049e-06
467.6	3.4982e-06
467.8	3.303e-06
468.0	3.1187e-06
468.2	2.7524e-06
468.4	2.4292e-06
468.6	2.1439e-06
468.8	1.8922e-06
469.0	1.67e-06
469.2	1.4739e-06
469.4	1.3008e-06
469.6	1.148e-06
469.8	1.0132e-06
470.0	8.9424e-07
470.2	9.497e-07
470.4	1.0086e-06
470.6	1.0711e-06
470.8	1.1376e-06
471.0	1.2081e-06
471.2	1.283e-06
471.4	1.3626e-06
471.6	1.4471e-06
471.8	1.5368e-06
472.0	1.6322e-06
472.2	1.7334e-06
472.4	1.8409e-06
472.6	1.955e-06
472.8	2.0763e-06
473.0	2.205e-06
473.2	2.3418e-06
473.4	2.487e-06
473.6	2.6412e-06
473.8	2.805e-06
474.0	2.979e-06
474.2	3.055e-06
474.4	3.1122e-06
474.6	3.1705e-06
474.8	3.2299e-06
475.0	3.2904e-06
475.2	3.352e-06
475.4	3.4148e-06
475.6	3.4788e-06
475.8	3.5439e-06
476.0	3.6103e-06
476.2	3.6779e-06
476.4	3.7468e-06
476.6	3.8169e-06
476.8	3.8884e-06
477.0	3.9612e-06
477.2	4.0354e-06
477.4	4.111e-06
477.6	4.188e-06
477.8	4.2664e-06
478.0	4.3463e-06
478.2	4.1904e-06
478.4	3.9389e-06
478.6	3.7025e-06
478.8	3.4803e-06
479.0	3.2715e-06
479.2	3.0751e-06
479.4	2.8906e-06
479.6	2.7171e-06
479.8	2.5541e-06
480.0	2.4008e-06
480.2	2.2567e-06
480.4	2.1213e-06
480.6	1.994e-06
480.8	1.8743e-06
481.0	1.7618e-06
481.2	1.6561e-06
481.4	1.5567e-06
481.6	1.4633e-06
481.8	1.3755e-06
482.0	1.2929e-06
482.2	1.2408e-06
482.4	1.2114e-06
482.6	1.1828e-06
482.8	1.1549e-06
483.0	1.1276e-06
483.2	1.1009e-06
483.4	1.0749e-06
483.6	1.0495e-06
483.8	1.0247e-06
484.0	1.0005e-06
484.2	9.7685e-07
484.4	9.5376e-07
484.6	9.3122e-07
484.8	9.0922e-07
485.0	8.8773e-07
485.2	8.6675e-07
485.4	8.4627e-07
485.6	8.2627e-07
485.8	8.0674e-07
486.0	7.8768e-07
486.2	7.5715e-07
486.4	7.1227e-07
486.6	6.7005e-07
486.8	6.3033e-07
487.0	5.9297e-07
487.2	5.5782e-07
487.4	5.2476e-07
487.6	4.9365e-07
487.8	4.6439e-07
488.0	4.3686e-07
488.2	4.1097e-07
488.4	3.8661e-07
488.6	3.6369e-07
488.8	3.4214e-07
489.0	3.2186e-07
489.2	3.0278e-07
489.4	2.8483e-07
489.6	2.6795e-07
489.8	2.5206e-07
490.0	2.3712e-07
490.2	2.3822e-07
490.4	2.7897e-07
490.6	3.2669e-07
490.8	3.8258e-07
491.0	4.4803e-07
491.2	5.2467e-07
491.4	6.1442e-07
491.6	7.1953e-07
491.8	8.4262e-07
492.0	9.8677e-07
492.2	1.1556e-06
492.4	1.3533e-06
492.6	1.5848e-06
492.8	1.8559e-06
493.0	2.1733e-06
493.2	2.5451e-06
493.4	2.9805e-06
493.6	3.4904e-06
493.8	4.0875e-06
494.0	4.7867e-06
494.2	5.4013e-06
494.4	5.2535e-06
494.6	5.1098e-06
494.8	4.97e-06
495.0	4.834e-06
495.2	4.7018e-06
495.4	4.5731e-06
495.6	4.448e-06
495.8	4.3263e-06
496.0	4.208e-06
496.2	4.0928e-06
496.4	3.9809e-06
496.6	3.872e-06
496.8	3.766e-06
497.0	3.663e-06
497.2	3.5628e-06
497.4	3.4653e-06
497.6	3.3705e-06
497.8	3.2783e-06
498.0	3.1886e-06
498.2	3.1201e-06
498.4	3.2054e-06
498.6	3.2931e-06
498.8	3.3831e-06
499.0	3.4756e-06
499.2	3.5706e-06
499.4	3.6683e-06
499.6	3.7686e-06
499.8	3.8716e-06
500.0	3.9775e-06
500.2	4.0448e-06
500.4	4.1133e-06
500.6	4.1829e-06
500.8	4.2537e-06
501.0	4.3257e-06
501.2	4.399e-06
501.4	4.4734e-06
501.6	4.5492e-06
501.8	4.6262e-06
502.0	4.7045e-06
502.2	4.7841e-06
502.4	4.8651e-06
502.6	4.9475e-06
502.8	5.0312e-06
503.0	5.0892e-06
503.2	5.1176e-06
503.4	5.1462e-06
503.6	5.1749e-06
503.8	5.2038e-06
504.0	5.2328e-06
504.2	5.2621e-06
504.4	5.2914e-06
504.6	5.321e-06
504.8	5.3507e-06
505.0	5.3805e-06
505.2	5.4106e-06
505.4	5.4408e-06
505.6	5.4711e-06
505.8	5.5017e-06
506.0	5.5324e-06
506.2	5.5633e-06
506.4	5.5943e-06
506.6	5.6256e-06
506.8	5.657e-06
507.0	5.6896e-06
507.2	5.7247e-06
507.4	5.7599e-06
507.6	5.7954e-06
507.8	5.8311e-06
508.0	5.867e-06
508.2	5.9031e-06
508.4	5.9394e-06
508.6	5.976e-06
508.8	6.0128e-06
509.0	6.0498e-06
509.2	6.0871e-06
509.4	6.1245e-06
509.6	6.1623e-06
509.8	6.2002e-06
510.0	6.2384e-06
510.2	6.2768e-06
510.4	6.3154e-06
510.6	6.3543e-06
510.8	6.3935e-06
511.0	6.4108e-06
511.2	6.3377e-06
511.4	6.2654e-06
511.6	6.1939e-06
511.8	6.1233e-06
512.0	6.0535e-06
512.2	5.9845e-06
512.4	5.9162e-06
512.6	5.8487e-06
512.8	5.782e-06
513.0	5.7161e-06
513.2	5.6509e-06
513.4	5.5865e-06
513.6	5.5228e-06
513.8	5.4598e-06
514.0	5.3975e-06
514.2	5.336e-06
514.4	5.2751e-06
514.6	5.215e-06
514.8	5.1555e-06
515.0	5.0598e-06
515.2	4.5395e-06
515.4	4.0727e-06
515.6	3.654e-06
515.8	3.2783e-06
516.0	2.9412e-06
516.2	2.6388e-06
516.4	2.3675e-06
516.6	2.124e-06
516.8	1.9056e-06
517.0	1.7097e-06
517.2	1.5339e-06
517.4	1.3762e-06
517.6	1.2347e-06
517.8	1.1077e-06
518.0	9.9383e-07
518.2	8.9164e-07
518.4	7.9996e-07
518.6	7.1771e-07
518.8	6.4391e-07
519.0	5.777e-07
519.2	5.6162e-07
519.4	5.4757e-07
519.6	5.3388e-07
519.8	5.2053e-07
520.0	5.0752e-07
520.2	4.9482e-07
520.4	4.8245e-07
520.6	4.7039e-07
520.8	4.5862e-07
521.0	4.4716e-07
521.2	4.3597e-07
521.4	4.2507e-07
521.6	4.1444e-07
521.8	4.0408e-07
522.0	3.9397e-07
522.2	3.8412e-07
522.4	3.7452e-07
522.6	3.6515e-07
522.8	3.5602e-07
523.0	3.4712e-07
523.2	3.5088e-07
523.4	3.5669e-07
523.6	3.626e-07
523.8	3.686e-07
524.0	3.747e-07
524.2	3.809e-07
524.4	3.8721e-07
524.6	3.9362e-07
524.8	4.0013e-07
525.0	4.0676e-07
525.2	4.1349e-07
525.4	4.2033e-07
525.6	4.2729e-07
525.8	4.3437e-07
526.0	4.4156e-07
526.2	4.4887e-07
526.4	4.563e-07
526.6	4.6385e-07
526.8	4.7153e-07
527.0	4.7933e-07
527.2	5.0954e-07
527.4	5.4851e-07
527.6	5.9047e-07
527.8	6.3564e-07
528.0	6.8426e-07
528.2	7.366e-07
528.4	7.9294e-07
528.6	8.5359e-07
528.8	9.1889e-07
529.0	9.8917e-07
529.2	1.0648e-06
529.4	1.1463e-06
529.6	1.234e-06
529.8	1.3284e-06
530.0	1.43e-06
530.2	1.5394e-06
530.4	1.6571e-06
530.6	1.7839e-06
530.8	1.9203e-06
531.0	2.0672e-06
531.2	2.2116e-06
531.4	2.36e-06
531.6	2.5183e-06
531.8	2.6872e-06
532.0	2.8675e-06
532.2	3.0598e-06
532.4	3.2651e-06
532.6	3.4841e-06
532.8	3.7179e-06
533.0	3.9673e-06
533.2	4.2334e-06
533.4	4.5174e-06
533.6	4.8205e-06
533.8	5.1438e-06
534.0	5.4889e-06
534.2	5.8571e-06
534.4	6.25e-06
534.6	6.6693e-06
534.8	7.1167e-06
535.0	7.5941e-06
535.2	7.7657e-06
535.4	7.7572e-06
535.6	7.7487e-06
535.8	7.7402e-06
536.0	7.7317e-06
536.2	7.7232e-06
536.4	7.7148e-06
536.6	7.7063e-06
536.8	7.6979e-06
537.0	7.6894e-06
537.2	7.681e-06
537.4	7.6726e-06
537.6	7.6641e-06
537.8	7.6557e-06
538.0	7.6473e-06
538.2	7.6389e-06
538.4	7.6306e-06
538.6	7.6222e-06
538.8	7.6138e-06
539.0	7.6055e-06
539.2	7.6143e-06
539.4	7.6348e-06
539.6	7.6554e-06
539.8	7.676e-06
540.0	7.6967e-06
540.2	7.7175e-06
540.4	7.7383e-06
540.6	7.7592e-06
540.8	7.7801e-06
541.0	7.801e-06
541.2	7.8221e-06
541.4	7.8432e-06
541.6	7.8643e-06
541.8	7.8855e-06
542.0	7.9068e-06
542.2	7.9281e-06
542.4	7.9495e-06
542.6	7.9709e-06
542.8	7.9924e-06
543.0	8.0139e-06
543.2	8.0587e-06
543.4	8.1038e-06
543.6	8.1491e-06
543.8	8.1882e-06
544.0	7.8141e-06
544.2	7.457e-06
544.4	7.1162e-06
544.6	6.791e-06
544.8	6.4807e-06
545.0	6.1845e-06
545.2	5.9019e-06
545.4	5.6322e-06
545.6	5.3748e-06
545.8	5.1292e-06
546.0	4.8948e-06
546.2	4.6711e-06
546.4	4.4577e-06
546.6	4.254e-06
546.8	4.0596e-06
547.0	3.8741e-06
547.2	3.697e-06
547.4	3.5281e-06
547.6	3.3669e-06
547.8	3.213e-06
548.0	3.122e-06
548.2	3.0414e-06
548.4	2.9629e-06
548.6	2.8864e-06
548.8	2.8119e-06
549.0	2.7394e-06
549.2	2.6687e-06
549.4	2.5998e-06
549.6	2.5327e-06
549.8	2.4673e-06
550.0	2.4036e-06
550.2	2.3416e-06
550.4	2.2811e-06
550.6	2.2222e-06
550.8	2.1649e-06
551.0	2.109e-06
551.2	2.0546e-06
551.4	2.0015e-06
551.6	1.9499e-06
551.8	1.8995e-06
552.0	1.9438e-06
552.2	2.0228e-06
552.4	2.105e-06
552.6	2.1905e-06
552.8	2.2796e-06
553.0	2.3722e-06
553.2	2.4686e-06
553.4	2.569e-06
553.6	2.6734e-06
553.8	2.7821e-06
554.0	2.8952e-06
554.2	3.0128e-06
554.4	3.1353e-06
554.6	3.2627e-06
554.8	3.3953e-06
555.0	3.5333e-06
555.2	3.677e-06
555.4	3.8264e-06
555.6	3.9819e-06
555.8	4.1438e-06
556.0	3.7589e-06
556.2	3.1455e-06
556.4	2.6322e-06
556.6	2.2027e-06
556.8	1.8432e-06
557.0	1.5424e-06
557.2	1.4688e-06
557.4	1.3987e-06
557.6	1.3319e-06
557.8	1.2684e-06
558.0	1.2078e-06
558.2	1.1502e-06
558.4	1.0953e-06
558.6	1.043e-06
558.8	9.9319e-07
559.0	9.4578e-07
559.2	9.0064e-07
559.4	8.5764e-07
559.6	8.1671e-07
559.8	7.7772e-07
560.0	7.406e-07
560.2	6.8137e-07
560.4	6.2278e-07
560.6	5.6923e-07
560.8	5.2029e-07
561.0	4.7555e-07
561.2	4.3466e-07
561.4	3.9728e-07
561.6	3.6312e-07
561.8	3.319e-07
562.0	3.0336e-07
562.2	2.7728e-07
562.4	2.5343e-07
562.6	2.3164e-07
562.8	2.1172e-07
563.0	1.9352e-07
563.2	1.7688e-07
563.4	1.6167e-07
563.6	1.4777e-07
563.8	1.3506e-07
564.0	1.2345e-07
564.2	1.151e-07
564.4	1.0796e-07
564.6	1.0125e-07
564.8	9.4969e-08
565.0	8.9073e-08
565.2	8.3544e-08
565.4	7.8358e-08
565.6	7.3494e-08
565.8	6.8932e-08
566.0	6.4653e-08
566.2	6.0639e-08
566.4	5.6875e-08
566.6	5.3344e-08
566.8	5.0033e-08
567.0	4.6927e-08
567.2	4.455e-08
567.4	4.2293e-08
567.6	4.0151e-08
567.8	3.8117e-08
568.0	3.6187e-08
568.2	3.4354e-08
568.4	3.2613e-08
568.6	3.0961e-08
568.8	2.9393e-08
569.0	2.7904e-08
569.2	2.6491e-08
569.4	2.5149e-08
569.6	2.3875e-08
569.8	2.2666e-08
570.0	2.1518e-08
570.2	2.2063e-08
570.4	2.2873e-08
570.6	2.3713e-08
570.8	2.4583e-08
571.0	2.5486e-08
571.2	2.6421e-08
571.4	2.7391e-08
571.6	2.8397e-08
571.8	2.9439e-08
572.0	3.052e-08
572.2	3.164e-08
572.4	3.2801e-08
572.6	3.4006e-08
572.8	3.5254e-08
573.0	3.6548e-08
573.2	3.789e-08
573.4	3.9281e-08
573.6	4.0722e-08
573.8	4.2217e-08
574.0	4.3767e-08
574.2	4.3406e-08
574.4	4.2631e-08
574.6	4.187e-08
574.8	4.1122e-08
575.0	4.0388e-08
575.2	3.9667e-08
575.4	3.8958e-08
575.6	3.8263e-08
575.8	3.758e-08
576.0	3.6909e-08
576.2	3.625e-08
576.4	3.5602e-08
576.6	3.4967e-08
576.8	3.4342e-08
577.0	3.3729e-08
577.2	3.3841e-08
